%       t              x              y          Lift_wing      Lift_stab        alpha
%     (sec)           (m)            (m)            (N)            (N)         (degrees)

  0.000000E+000  0.000000E+000  1.000000E+003  1.280474E+004  6.402368E+003  3.000000E+000
  2.000000E-002  1.999325E+000  1.000000E+003  1.308685E+004  6.543424E+003  3.070565E+000
  4.000000E-002  3.997178E+000  1.000002E+003  1.397608E+004  6.988041E+003  3.285430E+000
  6.000000E-002  5.993179E+000  1.000005E+003  1.550440E+004  7.752201E+003  3.654391E+000
  8.000000E-002  7.986669E+000  1.000010E+003  1.772739E+004  8.863694E+003  4.194285E+000
  1.000000E-001  9.976678E+000  1.000017E+003  2.072187E+004  1.036093E+004  4.929601E+000
  1.200000E-001  1.196187E+001  1.000028E+003  2.458149E+004  1.229075E+004  5.893315E+000
  1.400000E-001  1.394050E+001  1.000044E+003  2.940814E+004  1.470407E+004  7.127917E+000
  1.600000E-001  1.591029E+001  1.000066E+003  3.529586E+004  1.764793E+004  8.686510E+000
  1.800000E-001  1.786839E+001  1.000097E+003  4.230280E+004  2.115140E+004  1.063382E+001
  2.000000E-001  1.981126E+001  1.000137E+003  5.040515E+004  2.520258E+004  1.304679E+001
  2.200000E-001  2.173462E+001  1.000188E+003  5.942794E+004  2.971397E+004  1.601426E+001
  2.400000E-001  2.363342E+001  1.000252E+003  6.895240E+004  3.447620E+004  1.963497E+001
  2.600000E-001  2.550203E+001  1.000330E+003  7.821409E+004  3.910704E+004  2.401282E+001
  2.800000E-001  2.733458E+001  1.000420E+003  8.603289E+004  4.301644E+004  2.924847E+001
  3.000000E-001  2.912570E+001  1.000521E+003  9.084675E+004  4.542337E+004  3.542637E+001
  3.200000E-001  3.087162E+001  1.000627E+003  9.092570E+004  4.546285E+004  4.259777E+001
  3.400000E-001  3.257145E+001  1.000735E+003  8.477407E+004  4.238703E+004  5.076216E+001
  3.600000E-001  3.422836E+001  1.000837E+003  7.159398E+004  3.579699E+004  5.985123E+001
  3.800000E-001  3.584999E+001  1.000929E+003  5.160747E+004  2.580373E+004  6.972040E+001
  4.000000E-001  3.744767E+001  1.001009E+003  2.615451E+004  1.307726E+004  8.015137E+001
  4.200000E-001  3.903430E+001  1.001082E+003 -2.332804E+003 -1.166402E+003  9.086680E+001
  4.400000E-001  4.062139E+001  1.001155E+003 -3.047533E+004 -1.523766E+004  1.015569E+002
  4.600000E-001  4.221633E+001  1.001243E+003 -5.449868E+004 -2.724934E+004  1.119161E+002
  4.800000E-001  4.382100E+001  1.001356E+003 -7.132493E+004 -3.566246E+004  1.216833E+002
  5.000000E-001  4.543232E+001  1.001507E+003 -7.963443E+004 -3.981722E+004  1.306750E+002
  5.200000E-001  4.704437E+001  1.001699E+003 -8.008683E+004 -4.004342E+004  1.387992E+002
  5.400000E-001  4.865078E+001  1.001932E+003 -7.461768E+004 -3.730884E+004  1.460492E+002
  5.600000E-001  5.024642E+001  1.002203E+003 -6.545664E+004 -3.272832E+004  1.524829E+002
  5.800000E-001  5.182817E+001  1.002506E+003 -5.445686E+004 -2.722843E+004  1.581994E+002
  6.000000E-001  5.339487E+001  1.002834E+003 -4.286436E+004 -2.143218E+004  1.633182E+002
  6.200000E-001  5.494696E+001  1.003179E+003 -3.136943E+004 -1.568471E+004  1.679661E+002
  6.400000E-001  5.648612E+001  1.003536E+003 -2.025802E+004 -1.012901E+004  1.722690E+002
  6.600000E-001  5.801488E+001  1.003897E+003 -9.559447E+003 -4.779723E+003  1.763491E+002
  6.800000E-001  5.953644E+001  1.004260E+003  8.439548E+002  4.219774E+002  1.803238E+002
  7.000000E-001  6.105453E+001  1.004618E+003  1.114437E+004  5.572184E+003  1.843078E+002
  7.200000E-001  6.257343E+001  1.004967E+003  2.156053E+004  1.078027E+004  1.884143E+002
  7.400000E-001  6.409798E+001  1.005306E+003  3.229830E+004  1.614915E+004  1.927578E+002
  7.600000E-001  6.563365E+001  1.005630E+003  4.350152E+004  2.175076E+004  1.974566E+002
  7.800000E-001  6.718665E+001  1.005939E+003  5.516922E+004  2.758461E+004  2.026337E+002
  8.000000E-001  6.876380E+001  1.006230E+003  6.700575E+004  3.350287E+004  2.084169E+002
  8.200000E-001  7.037240E+001  1.006506E+003  7.816509E+004  3.908254E+004  2.149355E+002
  8.400000E-001  7.201946E+001  1.006769E+003  8.688240E+004  4.344120E+004  2.223104E+002
  8.600000E-001  7.371044E+001  1.007023E+003  9.013493E+004  4.506746E+004  2.306348E+002
  8.800000E-001  7.544710E+001  1.007274E+003  8.382971E+004  4.191485E+004  2.399404E+002
  9.000000E-001  7.722513E+001  1.007530E+003  6.436368E+004  3.218184E+004  2.501547E+002
  9.200000E-001  7.903298E+001  1.007793E+003  3.170651E+004  1.585326E+004  2.610635E+002
  9.400000E-001  8.085419E+001  1.008058E+003 -8.372567E+003 -4.186283E+003  2.723135E+002
  9.600000E-001  8.267308E+001  1.008310E+003 -4.647314E+004 -2.323657E+004  2.834736E+002
  9.800000E-001  8.448043E+001  1.008534E+003 -7.504683E+004 -3.752341E+004  2.941321E+002
  1.000000E+000  8.627538E+001  1.008713E+003 -9.162847E+004 -4.581423E+004  3.039776E+002
  1.020000E+000  8.806316E+001  1.008837E+003 -9.775694E+004 -4.887847E+004  3.128262E+002
  1.040000E+000  8.985149E+001  1.008901E+003 -9.641505E+004 -4.820753E+004  3.206078E+002
  1.060000E+000  9.164773E+001  1.008908E+003 -9.040690E+004 -4.520345E+004  3.273347E+002
  1.080000E+000  9.345750E+001  1.008860E+003 -8.185828E+004 -4.092914E+004  3.330708E+002
  1.100000E+000  9.528429E+001  1.008765E+003 -7.224033E+004 -3.612016E+004  3.379088E+002
  1.120000E+000  9.712977E+001  1.008628E+003 -6.251591E+004 -3.125796E+004  3.419534E+002
  1.140000E+000  9.899417E+001  1.008456E+003 -5.327606E+004 -2.663803E+004  3.453108E+002
  1.160000E+000  1.008768E+002  1.008254E+003 -4.484698E+004 -2.242349E+004  3.480823E+002
  1.180000E+000  1.027765E+002  1.008026E+003 -3.737267E+004 -1.868633E+004  3.503604E+002
  1.200000E+000  1.046916E+002  1.007778E+003 -3.087817E+004 -1.543909E+004  3.522270E+002
  1.220000E+000  1.066207E+002  1.007512E+003 -2.531618E+004 -1.265809E+004  3.537536E+002
  1.240000E+000  1.085622E+002  1.007231E+003 -2.059987E+004 -1.029993E+004  3.550014E+002
  1.260000E+000  1.105148E+002  1.006936E+003 -1.662455E+004 -8.312277E+003  3.560222E+002
  1.280000E+000  1.124770E+002  1.006631E+003 -1.328121E+004 -6.640605E+003  3.568598E+002
  1.300000E+000  1.144480E+002  1.006317E+003 -1.046407E+004 -5.232037E+003  3.575511E+002
  1.320000E+000  1.164266E+002  1.005994E+003 -8.074383E+003 -4.037191E+003  3.581271E+002
  1.340000E+000  1.184120E+002  1.005663E+003 -6.021581E+003 -3.010791E+003  3.586140E+002
  1.360000E+000  1.204035E+002  1.005327E+003 -4.222956E+003 -2.111478E+003  3.590346E+002
  1.380000E+000  1.224005E+002  1.004985E+003 -2.602352E+003 -1.301176E+003  3.594086E+002
  1.400000E+000  1.244022E+002  1.004637E+003 -1.088311E+003 -5.441557E+002  3.597540E+002
  1.420000E+000  1.264083E+002  1.004286E+003  3.881275E+002  1.940637E+002  3.600873E+002
  1.440000E+000  1.284180E+002  1.003930E+003  1.895843E+003  9.479213E+002  3.604250E+002
  1.460000E+000  1.304308E+002  1.003572E+003  3.506200E+003  1.753100E+003  3.607836E+002
  1.480000E+000  1.324460E+002  1.003211E+003  5.295724E+003  2.647862E+003  3.611808E+002
  1.500000E+000  1.344631E+002  1.002848E+003  7.348802E+003  3.674401E+003  3.616365E+002
  1.520000E+000  1.364810E+002  1.002484E+003  9.760257E+003  4.880128E+003  3.621732E+002
  1.540000E+000  1.384989E+002  1.002120E+003  1.263750E+004  6.318750E+003  3.628175E+002
  1.560000E+000  1.405155E+002  1.001757E+003  1.610165E+004  8.050826E+003  3.636012E+002
  1.580000E+000  1.425294E+002  1.001396E+003  2.028659E+004  1.014330E+004  3.645624E+002
  1.600000E+000  1.445386E+002  1.001038E+003  2.533415E+004  1.266708E+004  3.657472E+002
  1.620000E+000  1.465410E+002  1.000686E+003  3.138249E+004  1.569124E+004  3.672112E+002
  1.640000E+000  1.485337E+002  1.000340E+003  3.854330E+004  1.927165E+004  3.690209E+002
  1.660000E+000  1.505132E+002  1.000004E+003  4.686193E+004  2.343097E+004  3.712551E+002
  1.680000E+000  1.524753E+002  9.996780E+002  5.625389E+004  2.812695E+004  3.740049E+002
  1.700000E+000  1.544149E+002  9.993651E+002  6.641424E+004  3.320712E+004  3.773734E+002
  1.720000E+000  1.563262E+002  9.990661E+002  7.670754E+004  3.835377E+004  3.814715E+002
  1.740000E+000  1.582029E+002  9.987810E+002  8.606947E+004  4.303474E+004  3.864114E+002
  1.760000E+000  1.600389E+002  9.985084E+002  9.298493E+004  4.649246E+004  3.922944E+002
  1.780000E+000  1.618292E+002  9.982448E+002  9.562678E+004  4.781339E+004  3.991948E+002
  1.800000E+000  1.635712E+002  9.979849E+002  9.219908E+004  4.609954E+004  4.071400E+002
  1.820000E+000  1.652663E+002  9.977220E+002  8.140964E+004  4.070482E+004  4.160911E+002
  1.840000E+000  1.669206E+002  9.974501E+002  6.289524E+004  3.144762E+004  4.259293E+002
  1.860000E+000  1.685448E+002  9.971661E+002  3.749503E+004  1.874751E+004  4.364520E+002
  1.880000E+000  1.701526E+002  9.968718E+002  7.438704E+003  3.719352E+003  4.473822E+002
  1.900000E+000  1.717573E+002  9.965751E+002 -2.359858E+004 -1.179929E+004  4.583932E+002
  1.920000E+000  1.733685E+002  9.962886E+002 -5.103098E+004 -2.551549E+004  4.691482E+002
  1.940000E+000  1.749900E+002  9.960266E+002 -7.079256E+004 -3.539628E+004  4.793499E+002
  1.960000E+000  1.766196E+002  9.958004E+002 -8.091318E+004 -4.045659E+004  4.887830E+002
  1.980000E+000  1.782516E+002  9.956165E+002 -8.197751E+004 -4.098876E+004  4.973356E+002
  2.000000E+000  1.798790E+002  9.954752E+002 -7.624413E+004 -3.812206E+004  5.049941E+002
  2.020000E+000  1.814963E+002  9.953727E+002 -6.634844E+004 -3.317422E+004  5.118189E+002
  2.040000E+000  1.831000E+002  9.953025E+002 -5.444077E+004 -2.722039E+004  5.179167E+002
  2.060000E+000  1.846888E+002  9.952570E+002 -4.191963E+004 -2.095982E+004  5.234171E+002
  2.080000E+000  1.862632E+002  9.952287E+002 -2.952156E+004 -1.476078E+004  5.284569E+002
  2.100000E+000  1.878251E+002  9.952107E+002 -1.751985E+004 -8.759927E+003  5.331720E+002
  2.120000E+000  1.893775E+002  9.951967E+002 -5.905456E+003 -2.952728E+003  5.376944E+002
  2.140000E+000  1.909238E+002  9.951814E+002  5.484512E+003  2.742256E+003  5.421517E+002
  2.160000E+000  1.924686E+002  9.951601E+002  1.688234E+004  8.441170E+003  5.466692E+002
  2.180000E+000  1.940168E+002  9.951287E+002  2.852824E+004  1.426412E+004  5.513724E+002
  2.200000E+000  1.955742E+002  9.950842E+002  4.060616E+004  2.030308E+004  5.563893E+002
  2.220000E+000  1.971473E+002  9.950243E+002  5.314573E+004  2.657287E+004  5.618527E+002
  2.240000E+000  1.987433E+002  9.949478E+002  6.584985E+004  3.292492E+004  5.679001E+002
  2.260000E+000  2.003702E+002  9.948552E+002  7.780492E+004  3.890246E+004  5.746701E+002
  2.280000E+000  2.020352E+002  9.947492E+002  8.707527E+004  4.353764E+004  5.822923E+002
  2.300000E+000  2.037442E+002  9.946347E+002  9.036746E+004  4.518373E+004  5.908655E+002
  2.320000E+000  2.054990E+002  9.945182E+002  8.335096E+004  4.167548E+004  6.004218E+002
  2.340000E+000  2.072948E+002  9.944061E+002  6.251279E+004  3.125640E+004  6.108809E+002
  2.360000E+000  2.091194E+002  9.943006E+002  2.841831E+004  1.420916E+004  6.220141E+002
  2.380000E+000  2.109559E+002  9.941959E+002 -1.246762E+004 -6.233809E+003  6.334531E+002
  2.400000E+000  2.127888E+002  9.940781E+002 -5.064620E+004 -2.532310E+004  6.447578E+002
  2.420000E+000  2.146095E+002  9.939291E+002 -7.905002E+004 -3.952501E+004  6.555153E+002
  2.440000E+000  2.164182E+002  9.937328E+002 -9.561557E+004 -4.780778E+004  6.654156E+002
  2.460000E+000  2.182206E+002  9.934789E+002 -1.018892E+005 -5.094462E+004  6.742752E+002
  2.480000E+000  2.200249E+002  9.931635E+002 -1.006679E+005 -5.033395E+004  6.820224E+002
  2.500000E+000  2.218387E+002  9.927879E+002 -9.462913E+004 -4.731457E+004  6.886683E+002
  2.520000E+000  2.236678E+002  9.923567E+002 -8.590823E+004 -4.295412E+004  6.942772E+002
  2.540000E+000  2.255155E+002  9.918760E+002 -7.607716E+004 -3.803858E+004  6.989435E+002
  2.560000E+000  2.273834E+002  9.913522E+002 -6.622483E+004 -3.311241E+004  7.027742E+002
  2.580000E+000  2.292717E+002  9.907915E+002 -5.705289E+004 -2.852644E+004  7.058768E+002
  2.600000E+000  2.311795E+002  9.901994E+002 -4.897153E+004 -2.448577E+004  7.083517E+002
  2.620000E+000  2.331056E+002  9.895803E+002 -4.218884E+004 -2.109442E+004  7.102876E+002
  2.640000E+000  2.350488E+002  9.889378E+002 -3.678724E+004 -1.839362E+004  7.117587E+002
  2.660000E+000  2.370077E+002  9.882749E+002 -3.278410E+004 -1.639205E+004  7.128246E+002
  2.680000E+000  2.389813E+002  9.875934E+002 -3.017712E+004 -1.508856E+004  7.135290E+002
  2.700000E+000  2.409690E+002  9.868948E+002 -2.897787E+004 -1.448894E+004  7.139007E+002
  2.720000E+000  2.429704E+002  9.861795E+002 -2.923775E+004 -1.461887E+004  7.139528E+002
  2.740000E+000  2.449856E+002  9.854475E+002 -3.107021E+004 -1.553510E+004  7.136823E+002
  2.760000E+000  2.470151E+002  9.846980E+002 -3.467298E+004 -1.733649E+004  7.130689E+002
  2.780000E+000  2.490602E+002  9.839291E+002 -4.035242E+004 -2.017621E+004  7.120728E+002
  2.800000E+000  2.511222E+002  9.831383E+002 -4.854987E+004 -2.427493E+004  7.106311E+002
  2.820000E+000  2.532035E+002  9.823214E+002 -5.986394E+004 -2.993197E+004  7.086533E+002
  2.840000E+000  2.553064E+002  9.814726E+002 -7.504639E+004 -3.752319E+004  7.060145E+002
  2.860000E+000  2.574341E+002  9.805838E+002 -9.490911E+004 -4.745455E+004  7.025470E+002
  2.880000E+000  2.595891E+002  9.796440E+002 -1.199871E+005 -5.999355E+004  6.980322E+002
  2.900000E+000  2.617729E+002  9.786387E+002 -1.496211E+005 -7.481053E+004  6.921952E+002
  2.920000E+000  2.639836E+002  9.775500E+002 -1.799182E+005 -8.995909E+004  6.847139E+002
  2.940000E+000  2.662131E+002  9.763596E+002 -2.004399E+005 -1.002199E+005  6.752649E+002
  2.960000E+000  2.684453E+002  9.750554E+002 -1.923725E+005 -9.618625E+004  6.636402E+002
  2.980000E+000  2.706599E+002  9.736443E+002 -1.367221E+005 -6.836106E+004  6.499472E+002
  3.000000E+000  2.728470E+002  9.721601E+002 -3.571853E+004 -1.785926E+004  6.347955E+002
  3.020000E+000  2.750244E+002  9.706522E+002  7.896869E+004  3.948435E+004  6.192642E+002
  3.040000E+000  2.772369E+002  9.691580E+002  1.721138E+005  8.605689E+004  6.045794E+002
  3.060000E+000  2.795341E+002  9.676857E+002  2.287826E+005  1.143913E+005  5.917508E+002
  3.080000E+000  2.819504E+002  9.662205E+002  2.527084E+005  1.263542E+005  5.814048E+002
  3.100000E+000  2.844993E+002  9.647406E+002  2.570147E+005  1.285074E+005  5.738165E+002
  3.120000E+000  2.871817E+002  9.632283E+002  2.574210E+005  1.287105E+005  5.690477E+002
  3.140000E+000  2.899954E+002  9.616723E+002  2.681822E+005  1.340911E+005  5.671161E+002
  3.160000E+000  2.929453E+002  9.600661E+002  3.006588E+005  1.503294E+005  5.681502E+002
  3.180000E+000  2.960493E+002  9.584076E+002  3.614862E+005  1.807431E+005  5.725133E+002
  3.200000E+000  2.993426E+002  9.567024E+002  4.409204E+005  2.204602E+005  5.808662E+002
  3.220000E+000  3.028692E+002  9.549764E+002  4.746873E+005  2.373436E+005  5.940256E+002
  3.240000E+000  3.066375E+002  9.532827E+002  3.154126E+005  1.577063E+005  6.122187E+002
  3.260000E+000  3.105492E+002  9.516465E+002 -7.030108E+004 -3.515054E+004  6.336480E+002
  3.280000E+000  3.144477E+002  9.499673E+002 -4.143606E+005 -2.071803E+005  6.543532E+002
  3.300000E+000  3.182781E+002  9.480787E+002 -5.644974E+005 -2.822487E+005  6.706968E+002
  3.320000E+000  3.220875E+002  9.458844E+002 -6.038983E+005 -3.019491E+005  6.809413E+002
  3.340000E+000  3.259310E+002  9.433580E+002 -6.442871E+005 -3.221435E+005  6.845494E+002
  3.360000E+000  3.298324E+002  9.404775E+002 -7.452452E+005 -3.726226E+005  6.810203E+002
  3.380000E+000  3.337729E+002  9.371884E+002 -8.360840E+005 -4.180420E+005  6.692993E+002
  3.400000E+000  3.376686E+002  9.334610E+002 -5.592515E+005 -2.796258E+005  6.487301E+002
  3.420000E+000  3.414619E+002  9.294725E+002  2.389369E+005  1.194685E+005  6.225644E+002
  3.440000E+000  3.453671E+002  9.255236E+002  8.618929E+005  4.309464E+005  5.988170E+002
  3.460000E+000  3.497044E+002  9.216671E+002  1.105421E+006  5.527105E+005  5.841655E+002
  3.480000E+000  3.546355E+002  9.178031E+002  1.301785E+006  6.508925E+005  5.816231E+002
  3.500000E+000  3.602722E+002  9.139073E+002  1.506190E+006  7.530949E+005  5.934508E+002
  3.520000E+000  3.666542E+002  9.101253E+002  5.588856E+005  2.794428E+005  6.207561E+002
  3.540000E+000  3.732848E+002  9.064158E+002 -1.282454E+006 -6.412268E+005  6.531731E+002
  3.560000E+000  3.797258E+002  9.021048E+002 -1.947244E+006 -9.736218E+005  6.728150E+002
  3.580000E+000  3.861040E+002  8.967449E+002 -2.307615E+006 -1.153807E+006  6.712498E+002
  3.600000E+000  3.923650E+002  8.901866E+002 -1.357527E+006 -6.787634E+005  6.452994E+002
  3.620000E+000  3.984482E+002  8.830498E+002  1.939826E+006  9.699128E+005  6.073644E+002
  3.640000E+000  4.054143E+002  8.761700E+002  3.229351E+006  1.614676E+006  5.882763E+002
  3.660000E+000  4.140921E+002  8.694643E+002  3.245092E+006  1.622546E+006  6.041690E+002
  3.680000E+000  4.241065E+002  8.631053E+002 -2.592058E+006 -1.296029E+006  6.482732E+002
  3.700000E+000  4.338333E+002  8.556137E+002 -5.004870E+006 -2.502435E+006  6.691991E+002
  3.720000E+000  4.431255E+002  8.456057E+002 -1.765102E+006 -8.825508E+005  6.383263E+002
  3.740000E+000  4.524963E+002  8.347588E+002  6.343730E+006  3.171865E+006  5.951276E+002
  3.760000E+000  4.648744E+002  8.246022E+002  4.510348E+006  2.255174E+006  6.148555E+002
  3.780000E+000  4.789416E+002  8.145341E+002 -9.089873E+006 -4.544936E+006  6.641514E+002
  3.800000E+000  4.919480E+002  8.004917E+002  7.219532E+004  3.609766E+004  6.298309E+002
  3.820000E+000  5.061837E+002  7.854946E+002  1.326661E+007  6.633307E+006  6.000835E+002
  3.840000E+000  5.249013E+002  7.715236E+002 -1.573269E+007 -7.866346E+006  6.608503E+002
  3.860000E+000  5.421476E+002  7.521372E+002  1.422048E+007  7.110241E+006  6.099873E+002
  3.880000E+000  5.642344E+002  7.331888E+002 -1.316961E+007 -6.584807E+006  6.436082E+002
  3.900000E+000  5.869273E+002  7.095090E+002  2.105712E+007  1.052856E+007  6.124101E+002
  3.920000E+000  6.152953E+002  6.849978E+002 -3.980259E+007 -1.990129E+007  6.574030E+002
  3.940000E+000  6.450963E+002  6.534908E+002  3.451974E+007  1.725987E+007  6.150920E+002
  3.960000E+000  6.808776E+002  6.179728E+002  7.199217E+007  3.599608E+007  6.039672E+002
  3.980000E+000  7.237003E+002  5.762147E+002  9.731496E+007  4.865748E+007  6.055846E+002
  4.000000E+000  7.754748E+002  5.261032E+002  9.045168E+007  4.522584E+007  6.164911E+002
  4.020000E+000  8.394062E+002  4.651021E+002 -1.656672E+008 -8.283360E+007  6.464761E+002
  4.040000E+000  9.186257E+002  3.871148E+002 -3.169182E+008 -1.584591E+008  6.506497E+002
  4.060000E+000  1.020028E+003  2.842943E+002  4.122738E+008  2.061369E+008  6.151627E+002
  4.080000E+000  1.158781E+003  1.468718E+002  5.022712E+008  2.511356E+008  6.211277E+002
  4.100000E+000  1.356610E+003 -5.024914E+001  1.429730E+009  7.148650E+008  6.179453E+002
  4.120000E+000  1.663846E+003 -3.558713E+002  5.936305E+008  2.968153E+008  6.281986E+002
  4.140000E+000  2.205685E+003 -8.965932E+002 -1.424599E+009 -7.122994E+008  6.311836E+002
  4.160000E+000  3.425418E+003 -2.115538E+003  4.221249E+009  2.110625E+009  6.295001E+002
  4.180000E+000  8.791638E+003 -7.481095E+003  1.735882E+012  8.679412E+011  6.261456E+002
  4.190581E+000  8.915486E+004 -8.784370E+004  9.594428E+015  4.797214E+015  6.282261E+002